0.0,2.8750438696879622e-05
0.001,2.6650406652933638e-05
0.002,2.4750377660792035e-05
0.003,2.3750362401770138e-05
0.004,2.355035934996576e-05
0.005,2.3650360875867948e-05
0.006,2.3650360875867948e-05
0.007,2.3650360875867948e-05
0.008,2.3750362401770138e-05
0.009000000000000001,2.4350371557183274e-05
0.010000000000000002,2.5350386816205172e-05
0.011000000000000003,2.645040360112926e-05
0.012000000000000004,2.7350417334248964e-05
0.013000000000000005,2.7850424963759914e-05
0.014000000000000005,2.8250431067368672e-05
0.015000000000000006,2.8550435645075244e-05
0.016000000000000007,2.8850440222781812e-05
0.017000000000000008,2.8850440222781812e-05
0.01800000000000001,2.845043411917305e-05
0.01900000000000001,2.7750423437857725e-05
0.02000000000000001,2.7550420386053346e-05
0.02100000000000001,2.835043259327086e-05
0.022000000000000013,3.0350463111314657e-05
0.023000000000000013,3.28505012588694e-05
0.024000000000000014,3.465052872510881e-05
0.025000000000000015,3.495053330281538e-05
0.026000000000000016,3.385051651789129e-05
0.027000000000000017,3.215049057755407e-05
0.028000000000000018,3.145047989623874e-05
0.02900000000000002,3.275049973296721e-05
0.03000000000000002,3.5850547035935095e-05
0.03100000000000002,3.985060807202268e-05
0.03200000000000002,4.3250659952697126e-05
0.03300000000000002,4.5050687418936536e-05
0.03400000000000002,4.5350691996643104e-05
0.035000000000000024,4.495068589303435e-05
0.036000000000000025,4.4750682841229974e-05
0.037000000000000026,4.525069047074092e-05
0.03800000000000003,4.6150704203860626e-05
0.03900000000000003,4.6550710307469384e-05
0.04000000000000003,4.595070115205625e-05
0.04100000000000003,4.4750682841229974e-05
0.04200000000000003,4.385066910811026e-05
0.04300000000000003,4.415067368581683e-05
0.04400000000000003,4.6150704203860626e-05
0.04500000000000003,4.885074540321975e-05
0.046000000000000034,5.065077286945916e-05
0.047000000000000035,5.005076371404603e-05
0.048000000000000036,4.685071488517595e-05
0.04900000000000004,4.2250644693675225e-05
0.05000000000000004,3.845058670939202e-05
0.05100000000000004,3.705056534676137e-05
0.05200000000000004,3.835058518348983e-05
0.05300000000000004,4.135063096055552e-05
0.05400000000000004,4.415067368581683e-05
0.05500000000000004,4.525069047074092e-05
0.05600000000000004,4.425067521171902e-05
0.057000000000000044,4.1850638590066474e-05
0.058000000000000045,3.9350600442511725e-05
0.059000000000000045,3.7650574502174505e-05
0.060000000000000046,3.705056534676137e-05
0.06100000000000005,3.725056839856575e-05
0.06200000000000005,3.795057907988107e-05
0.06300000000000004,3.885059281300078e-05
0.06400000000000004,3.995060959792487e-05
0.06500000000000004,4.0650620279240194e-05
0.06600000000000004,4.0350615701533626e-05
0.06700000000000005,3.855058823529421e-05
0.06800000000000005,3.555054245822852e-05
0.06900000000000005,3.2250492103456256e-05
0.07000000000000005,3.0050458533608088e-05
0.07100000000000005,3.0050458533608088e-05
0.07200000000000005,3.1950487525749694e-05
0.07300000000000005,3.465052872510881e-05
0.07400000000000005,3.6350554665446036e-05
0.07500000000000005,3.615055161364166e-05
0.07600000000000005,3.405051956969567e-05
0.07700000000000005,3.135047837033655e-05
0.07800000000000006,2.9550450904097138e-05
0.07900000000000006,2.985045548180371e-05
0.08000000000000006,3.2250492103456256e-05
0.08100000000000006,3.5850547035935095e-05
0.08200000000000006,3.9250598916609536e-05
0.08300000000000006,4.135063096055552e-05
0.08400000000000006,4.145063248645771e-05
0.08500000000000006,3.975060654612048e-05
0.08600000000000006,3.705056534676137e-05
0.08700000000000006,3.435052414740225e-05
0.08800000000000006,3.255049668116283e-05
0.08900000000000007,3.2250492103456256e-05
0.09000000000000007,3.3450510414282535e-05
0.09100000000000007,3.545054093232633e-05
0.09200000000000007,3.715056687266355e-05
0.09300000000000007,3.795057907988107e-05
0.09400000000000007,3.7450571450370126e-05
0.09500000000000007,3.6250553139543846e-05
0.09600000000000007,3.5150536354619756e-05
0.09700000000000007,3.4750530251011005e-05
0.09800000000000007,3.525053788052195e-05
0.09900000000000007,3.605055008773947e-05
0.10000000000000007,3.6350554665446036e-05
0.10100000000000008,3.555054245822852e-05
0.10200000000000008,3.385051651789129e-05
0.10300000000000008,3.205048905165188e-05
0.10400000000000008,3.135047837033655e-05
0.10500000000000008,3.215049057755407e-05
0.10600000000000008,3.415052109559787e-05
0.10700000000000008,3.595054856183728e-05
0.10800000000000008,3.6650559243152604e-05
0.10900000000000008,3.545054093232633e-05
0.11000000000000008,3.305050431067378e-05
0.11100000000000008,3.0350463111314657e-05
0.11200000000000009,2.8750438696879622e-05
0.11300000000000009,2.8750438696879622e-05
0.11400000000000009,3.0650467689021225e-05
0.11500000000000009,3.3750514991989104e-05
0.11600000000000009,3.725056839856575e-05
0.11700000000000009,4.0350615701533626e-05
0.11800000000000009,4.2050641641870846e-05
0.11900000000000009,4.175063706416428e-05
0.12000000000000009,3.9250598916609536e-05
0.1210000000000001,3.525053788052195e-05
0.1220000000000001,3.105047379262998e-05
0.1230000000000001,2.8150429541466486e-05
0.1240000000000001,2.7350417334248964e-05
0.12500000000000008,2.835043259327086e-05
0.12600000000000008,3.0150460059510278e-05
0.12700000000000009,3.135047837033655e-05
0.12800000000000009,3.155048142214093e-05
0.1290000000000001,3.105047379262998e-05
0.1300000000000001,3.115047531853218e-05
0.1310000000000001,3.275049973296721e-05
0.1320000000000001,3.57505455100329e-05
0.1330000000000001,3.905059586480516e-05
0.1340000000000001,4.125062943465333e-05
0.1350000000000001,4.165063553826209e-05
0.1360000000000001,4.0650620279240194e-05
0.1370000000000001,3.9250598916609536e-05
0.1380000000000001,3.8750591287098595e-05
0.1390000000000001,3.9250598916609536e-05
0.1400000000000001,4.005061112382705e-05
0.1410000000000001,3.995060959792487e-05
0.1420000000000001,3.795057907988107e-05
0.1430000000000001,3.4550527199206626e-05
0.1440000000000001,3.0850470740825604e-05
0.1450000000000001,2.8750438696879622e-05
0.1460000000000001,2.935044785229276e-05
0.1470000000000001,3.255049668116283e-05
0.1480000000000001,3.695056382085917e-05
0.1490000000000001,4.045061722743581e-05
0.1500000000000001,4.165063553826209e-05
0.1510000000000001,4.025061417563143e-05
0.1520000000000001,3.735056992446793e-05
0.1530000000000001,3.4750530251011005e-05
0.1540000000000001,3.395051804379348e-05
0.1550000000000001,3.535053940642414e-05
0.1560000000000001,3.8050580605783256e-05
0.1570000000000001,4.095062485694676e-05
0.1580000000000001,4.265065079728398e-05
0.1590000000000001,4.275065232318618e-05
0.16000000000000011,4.15506340123599e-05
0.16100000000000012,3.9550603494316104e-05
0.16200000000000012,3.7450571450370126e-05
0.16300000000000012,3.57505455100329e-05
0.16400000000000012,3.4850531776913194e-05
0.16500000000000012,3.4750530251011005e-05
0.16600000000000012,3.57505455100329e-05
0.16700000000000012,3.7750576028076694e-05
0.16800000000000012,4.0350615701533626e-05
0.16900000000000012,4.3450663004501505e-05
0.17000000000000012,4.6550710307469384e-05
0.17100000000000012,4.975075913633945e-05
0.17200000000000013,5.355081712062266e-05
0.17300000000000013,5.825088883802558e-05
0.17400000000000013,6.435098191805914e-05
0.17500000000000013,7.195109788662555e-05
0.17600000000000013,8.075123216601825e-05
0.17700000000000013,9.045138017853066e-05
0.17800000000000013,0.00010025152971694523
0.17900000000000013,0.00010945167009994669
0.18000000000000013,0.00011685178301670872
0.18100000000000013,0.00012135185168230726
0.18200000000000013,0.00012215186388952478
0.18300000000000013,0.00011905181658655689
0.18400000000000014,0.00011245171587701238
0.18500000000000014,0.00010345157854581531
0.18600000000000014,9.315142137788976e-05
0.18700000000000014,8.21512535286489e-05
0.18800000000000014,7.05510765239949e-05
0.18900000000000014,5.765087968261244e-05
0.19000000000000014,4.3450663004501505e-05
0.19100000000000014,2.8150429541466486e-05
0.19200000000000014,1.3150200656138031e-05
0.19300000000000014,2.50003814755565e-07
0.19400000000000014,-8.550130464637126e-06
0.19500000000000015,-1.2650193026626903e-05
0.19600000000000015,-1.2150185397115954e-05
0.19700000000000015,-8.750133516441505e-06
0.19800000000000015,-4.450067902647349e-06
0.19900000000000015,-9.50014496070711e-07
0.20000000000000015,1.4500221255818411e-06
0.20100000000000015,3.250049591821255e-06
0.20200000000000015,5.950090791180377e-06
0.20300000000000015,1.0550160982681101e-05
0.20400000000000015,1.705026016632343e-05
0.20500000000000015,2.4250370031281085e-05
0.20600000000000016,3.0550466163119035e-05
0.20700000000000016,3.435052414740225e-05
0.20800000000000016,3.545054093232633e-05
0.20900000000000016,3.4850531776913194e-05
0.21000000000000016,3.415052109559787e-05
0.21100000000000016,3.4750530251011005e-05
0.21200000000000016,3.655055771725042e-05
0.21300000000000016,3.8750591287098595e-05
0.21400000000000016,3.985060807202268e-05
0.21500000000000016,3.8950594338902974e-05
0.21600000000000016,3.6650559243152604e-05
0.21700000000000016,3.435052414740225e-05
0.21800000000000017,3.3750514991989104e-05
0.21900000000000017,3.565054398413071e-05
0.22000000000000017,3.9250598916609536e-05
0.22100000000000017,4.285065384908836e-05
0.22200000000000017,4.495068589303435e-05
0.22300000000000017,4.465068131532778e-05
0.22400000000000017,4.25506492713818e-05
0.22500000000000017,3.985060807202268e-05
0.22600000000000017,3.7850577553978884e-05
0.22700000000000017,3.695056382085917e-05
0.22800000000000017,3.695056382085917e-05
0.22900000000000018,3.7450571450370126e-05
0.23000000000000018,3.7850577553978884e-05
0.23100000000000018,3.845058670939202e-05
0.23200000000000018,3.945060196841392e-05
0.23300000000000018,4.085062333104457e-05
0.23400000000000018,4.2250644693675225e-05
0.23500000000000018,4.335066147859931e-05
0.23600000000000018,4.3450663004501505e-05
0.23700000000000018,4.265065079728398e-05
0.23800000000000018,4.115062790875114e-05
0.23900000000000018,3.96506050202183e-05
0.24000000000000019,3.855058823529421e-05
0.2410000000000002,3.825058365758764e-05
0.2420000000000002,3.8750591287098595e-05
0.2430000000000002,3.975060654612048e-05
0.2440000000000002,4.105062638284895e-05
0.2450000000000002,4.2050641641870846e-05
0.2460000000000002,4.25506492713818e-05
0.2470000000000002,4.235064621957742e-05
0.2480000000000002,4.145063248645771e-05
0.2490000000000002,4.0350615701533626e-05
0.25000000000000017,3.96506050202183e-05
0.25100000000000017,3.945060196841392e-05
0.25200000000000017,3.975060654612048e-05
0.25300000000000017,3.995060959792487e-05
0.25400000000000017,3.945060196841392e-05
0.25500000000000017,3.815058213168545e-05
0.25600000000000017,3.6350554665446036e-05
0.2570000000000002,3.525053788052195e-05
0.2580000000000002,3.57505455100329e-05
0.2590000000000002,3.795057907988107e-05
0.2600000000000002,4.115062790875114e-05
0.2610000000000002,4.385066910811026e-05
0.2620000000000002,4.465068131532778e-05
0.2630000000000002,4.3250659952697126e-05
0.2640000000000002,4.045061722743581e-05
0.2650000000000002,3.795057907988107e-05
0.2660000000000002,3.725056839856575e-05
0.2670000000000002,3.86505897611964e-05
0.2680000000000002,4.145063248645771e-05
0.2690000000000002,4.385066910811026e-05
0.2700000000000002,4.455067978942559e-05
0.2710000000000002,4.295065537499056e-05
0.2720000000000002,4.005061112382705e-05
0.2730000000000002,3.715056687266355e-05
0.2740000000000002,3.565054398413071e-05
0.2750000000000002,3.595054856183728e-05
0.2760000000000002,3.7650574502174505e-05
0.2770000000000002,4.005061112382705e-05
0.2780000000000002,4.1850638590066474e-05
0.2790000000000002,4.265065079728398e-05
0.2800000000000002,4.235064621957742e-05
0.2810000000000002,4.115062790875114e-05
0.2820000000000002,3.9350600442511725e-05
0.2830000000000002,3.7450571450370126e-05
0.2840000000000002,3.565054398413071e-05
0.2850000000000002,3.435052414740225e-05
0.2860000000000002,3.395051804379348e-05
0.2870000000000002,3.425052262150005e-05
0.2880000000000002,3.535053940642414e-05
0.2890000000000002,3.6650559243152604e-05
0.2900000000000002,3.7650574502174505e-05
0.2910000000000002,3.8050580605783256e-05
0.2920000000000002,3.7850577553978884e-05
0.2930000000000002,3.7850577553978884e-05
0.2940000000000002,3.835058518348983e-05
0.2950000000000002,3.985060807202268e-05
0.2960000000000002,4.1850638590066474e-05
0.2970000000000002,4.3550664530403695e-05
0.2980000000000002,4.395067063401245e-05
0.2990000000000002,4.285065384908836e-05
0.3000000000000002,4.0650620279240194e-05
0.3010000000000002,3.855058823529421e-05
0.3020000000000002,3.755057297627231e-05
0.3030000000000002,3.815058213168545e-05
0.3040000000000002,3.945060196841392e-05
0.3050000000000002,4.0650620279240194e-05
0.3060000000000002,4.0750621805142384e-05
0.3070000000000002,3.985060807202268e-05
0.3080000000000002,3.8950594338902974e-05
0.3090000000000002,3.905059586480516e-05
0.3100000000000002,4.025061417563143e-05
0.3110000000000002,4.2050641641870846e-05
0.3120000000000002,4.315065842679493e-05
0.3130000000000002,4.285065384908836e-05
0.3140000000000002,4.135063096055552e-05
0.3150000000000002,4.005061112382705e-05
0.3160000000000002,4.045061722743581e-05
0.3170000000000002,4.305065690089275e-05
0.3180000000000002,4.695071641107815e-05
0.31900000000000023,5.035076829175259e-05
0.32000000000000023,5.165078812848106e-05
0.32100000000000023,5.015076523994821e-05
0.32200000000000023,4.715071946288253e-05
0.32300000000000023,4.455067978942559e-05
0.32400000000000023,4.385066910811026e-05
0.32500000000000023,4.5350691996643104e-05
0.32600000000000023,4.785073014419785e-05
0.32700000000000023,4.965075761043726e-05
0.32800000000000024,4.9250751506828505e-05
0.32900000000000024,4.685071488517595e-05
0.33000000000000024,4.3450663004501505e-05
0.33100000000000024,4.115062790875114e-05
0.33200000000000024,4.085062333104457e-05
0.33300000000000024,4.285065384908836e-05
0.33400000000000024,4.585069962615406e-05
0.33500000000000024,4.83507377737088e-05
0.33600000000000024,4.9450754558632884e-05
0.33700000000000024,4.9050748455024126e-05
0.33800000000000024,4.7950731670100036e-05
0.33900000000000025,4.715071946288253e-05
0.34000000000000025,4.745072404058909e-05
0.34100000000000025,4.885074540321975e-05
0.34200000000000025,5.0750774395361353e-05
0.34300000000000025,5.2350798809796384e-05
0.34400000000000025,5.285080643930733e-05
0.34500000000000025,5.1950792706187627e-05
0.34600000000000025,5.005076371404603e-05
0.34700000000000025,4.745072404058909e-05
0.34800000000000025,4.5350691996643104e-05
0.34900000000000025,4.44506782635234e-05
0.35000000000000026,4.525069047074092e-05
0.35100000000000026,4.7650727092393475e-05
0.35200000000000026,5.035076829175259e-05
0.35300000000000026,5.22507972838942e-05
0.35400000000000026,5.2150795757992005e-05
0.35500000000000026,5.02507667658504e-05
0.35600000000000026,4.745072404058909e-05
0.35700000000000026,4.525069047074092e-05
0.35800000000000026,4.465068131532778e-05
0.35900000000000026,4.585069962615406e-05
0.36000000000000026,4.7650727092393475e-05
0.36100000000000027,4.9050748455024126e-05
0.36200000000000027,4.895074692912194e-05
0.36300000000000027,4.73507225146869e-05
0.36400000000000027,4.5350691996643104e-05
0.36500000000000027,4.385066910811026e-05
0.36600000000000027,4.385066910811026e-05
0.36700000000000027,4.555069504844748e-05
0.36800000000000027,4.83507377737088e-05
0.36900000000000027,5.095077744716573e-05
0.3700000000000003,5.22507972838942e-05
0.3710000000000003,5.165078812848106e-05
0.3720000000000003,4.9550756084535074e-05
0.3730000000000003,4.725072098878471e-05
0.3740000000000003,4.605070267795844e-05
0.3750000000000003,4.6450708781567195e-05
0.3760000000000003,4.7950731670100036e-05
0.3770000000000003,4.9150749980926316e-05
0.3780000000000003,4.885074540321975e-05
0.3790000000000003,4.715071946288253e-05
0.3800000000000003,4.565069657434968e-05
0.3810000000000003,4.575069810025186e-05
0.3820000000000003,4.7950731670100036e-05
0.3830000000000003,5.095077744716573e-05
0.3840000000000003,5.255080186160076e-05
0.3850000000000003,5.145078507667668e-05
0.3860000000000003,4.815073472190442e-05
0.3870000000000003,4.495068589303435e-05
0.3880000000000003,4.435067673762121e-05
0.3890000000000003,4.6550710307469384e-05
0.3900000000000003,4.975075913633945e-05
0.3910000000000003,5.115078049897011e-05
0.3920000000000003,4.9250751506828505e-05
0.3930000000000003,4.495068589303435e-05
0.3940000000000003,4.125062943465333e-05
0.3950000000000003,4.045061722743581e-05
0.3960000000000003,4.265065079728398e-05
0.3970000000000003,4.575069810025186e-05
0.3980000000000003,4.695071641107815e-05
0.3990000000000003,4.495068589303435e-05
0.4000000000000003,4.115062790875114e-05
0.4010000000000003,3.835058518348983e-05
0.4020000000000003,3.86505897611964e-05
0.4030000000000003,4.195064011596866e-05
0.4040000000000003,4.605070267795844e-05
0.4050000000000003,4.845073929961098e-05
0.4060000000000003,4.83507377737088e-05
0.4070000000000003,4.6550710307469384e-05
0.4080000000000003,4.4750682841229974e-05
0.4090000000000003,4.425067521171902e-05
0.4100000000000003,4.4750682841229974e-05
0.4110000000000003,4.555069504844748e-05
0.4120000000000003,4.595070115205625e-05
0.4130000000000003,4.605070267795844e-05
0.4140000000000003,4.625070572976281e-05
0.4150000000000003,4.695071641107815e-05
0.4160000000000003,4.775072861829566e-05
0.4170000000000003,4.785073014419785e-05
0.4180000000000003,4.705071793698033e-05
0.4190000000000003,4.6150704203860626e-05
0.4200000000000003,4.595070115205625e-05
0.4210000000000003,4.725072098878471e-05
0.4220000000000003,4.9250751506828505e-05
0.4230000000000003,5.065077286945916e-05
0.4240000000000003,5.035076829175259e-05
0.4250000000000003,4.855074082551318e-05
0.4260000000000003,4.675071335927376e-05
0.4270000000000003,4.6550710307469384e-05
0.4280000000000003,4.865074235141536e-05
0.4290000000000003,5.1950792706187627e-05
0.4300000000000003,5.455083237964456e-05
0.4310000000000003,5.4950838483253316e-05
0.43200000000000033,5.275080491340514e-05
0.43300000000000033,4.9250751506828505e-05
0.43400000000000033,4.595070115205625e-05
0.43500000000000033,4.425067521171902e-05
0.43600000000000033,4.405067215991465e-05
0.43700000000000033,4.455067978942559e-05
0.43800000000000033,4.495068589303435e-05
0.43900000000000033,4.4750682841229974e-05
0.44000000000000034,4.415067368581683e-05
0.44100000000000034,4.3650666056305884e-05
0.44200000000000034,4.3650666056305884e-05
0.44300000000000034,4.415067368581683e-05
0.44400000000000034,4.485068436713216e-05
0.44500000000000034,4.525069047074092e-05
0.44600000000000034,4.5050687418936536e-05
0.44700000000000034,4.425067521171902e-05
0.44800000000000034,4.305065690089275e-05
0.44900000000000034,4.195064011596866e-05
0.45000000000000034,4.145063248645771e-05
0.45100000000000035,4.195064011596866e-05
0.45200000000000035,4.3250659952697126e-05
0.45300000000000035,4.465068131532778e-05
0.45400000000000035,4.54506935225453e-05
0.45500000000000035,4.5050687418936536e-05
0.45600000000000035,4.385066910811026e-05
0.45700000000000035,4.235064621957742e-05
0.45800000000000035,4.125062943465333e-05
0.45900000000000035,4.0650620279240194e-05
0.46000000000000035,4.0350615701533626e-05
0.46100000000000035,3.96506050202183e-05
0.46200000000000035,3.855058823529421e-05
0.46300000000000036,3.755057297627231e-05
0.46400000000000036,3.715056687266355e-05
0.46500000000000036,3.7650574502174505e-05
0.46600000000000036,3.8750591287098595e-05
0.46700000000000036,3.96506050202183e-05
0.46800000000000036,4.005061112382705e-05
0.46900000000000036,4.025061417563143e-05
0.47000000000000036,4.085062333104457e-05
0.47100000000000036,4.2450647745479604e-05
0.47200000000000036,4.455067978942559e-05
0.47300000000000036,4.6150704203860626e-05
0.47400000000000037,4.575069810025186e-05
0.47500000000000037,4.305065690089275e-05
0.47600000000000037,3.885059281300078e-05
0.47700000000000037,3.465052872510881e-05
0.47800000000000037,3.205048905165188e-05
0.47900000000000037,3.1750484473945315e-05
0.48000000000000037,3.3450510414282535e-05
0.48100000000000037,3.6350554665446036e-05
0.4820000000000004,3.905059586480516e-05
0.4830000000000004,4.0650620279240194e-05
0.4840000000000004,4.0550618753338005e-05
0.4850000000000004,3.855058823529421e-05
0.4860000000000004,3.525053788052195e-05
0.4870000000000004,3.1850485999847505e-05
0.4880000000000004,2.985045548180371e-05
0.4890000000000004,3.0250461585412467e-05
0.4900000000000004,3.325050736247816e-05
0.4910000000000004,3.7850577553978884e-05
0.4920000000000004,4.2250644693675225e-05
0.4930000000000004,4.4750682841229974e-05
0.4940000000000004,4.495068589303435e-05
0.4950000000000004,4.3550664530403695e-05
0.4960000000000004,4.2050641641870846e-05
0.4970000000000004,4.145063248645771e-05
0.4980000000000004,4.2050641641870846e-05
0.4990000000000004,4.3250659952697126e-05
0.5000000000000003,4.415067368581683e-05
0.5010000000000003,4.455067978942559e-05
0.5020000000000003,4.485068436713216e-05
0.5030000000000003,4.555069504844748e-05
0.5040000000000003,4.6650711833371573e-05
0.5050000000000003,4.7650727092393475e-05
0.5060000000000003,4.745072404058909e-05
0.5070000000000003,4.585069962615406e-05
0.5080000000000003,4.3450663004501505e-05
0.5090000000000003,4.165063553826209e-05
0.5100000000000003,4.15506340123599e-05
0.5110000000000003,4.3450663004501505e-05
0.5120000000000003,4.565069657434968e-05
0.5130000000000003,4.6450708781567195e-05
0.5140000000000003,4.465068131532778e-05
0.5150000000000003,4.0650620279240194e-05
0.5160000000000003,3.6450556191348225e-05
0.5170000000000003,3.425052262150005e-05
0.5180000000000003,3.4850531776913194e-05
0.5190000000000003,3.735056992446793e-05
0.5200000000000004,3.96506050202183e-05
0.5210000000000004,4.005061112382705e-05
0.5220000000000004,3.7850577553978884e-05
0.5230000000000004,3.405051956969567e-05
0.5240000000000004,3.0450464637216846e-05
0.5250000000000004,2.8750438696879622e-05
0.5260000000000004,2.945044937819495e-05
0.5270000000000004,3.205048905165188e-05
0.5280000000000004,3.5150536354619756e-05
0.5290000000000004,3.7450571450370126e-05
0.5300000000000004,3.8050580605783256e-05
0.5310000000000004,3.685056229495698e-05
0.5320000000000004,3.435052414740225e-05
0.5330000000000004,3.1750484473945315e-05
0.5340000000000004,2.99504570077059e-05
0.5350000000000004,2.975045395590152e-05
0.5360000000000004,3.0550466163119035e-05
0.5370000000000004,3.135047837033655e-05
0.5380000000000004,3.0850470740825604e-05
0.5390000000000004,2.8650437170977433e-05
0.5400000000000004,2.5350386816205172e-05
0.5410000000000004,2.2850348668650433e-05
0.5420000000000004,2.265034561684605e-05
0.5430000000000004,2.5150383764400793e-05
0.5440000000000004,2.8950441748684e-05
0.5450000000000004,3.1950487525749694e-05
0.5460000000000004,3.245049515526064e-05
0.5470000000000004,3.0250461585412467e-05
0.5480000000000004,2.6550405127031448e-05
0.5490000000000004,2.355035934996576e-05
0.5500000000000004,2.255034409094386e-05
0.5510000000000004,2.395036545357452e-05
0.5520000000000004,2.645040360112926e-05
0.5530000000000004,2.845043411917305e-05
0.5540000000000004,2.8550435645075244e-05
0.5550000000000004,2.6650406652933638e-05
0.5560000000000004,2.395036545357452e-05
0.5570000000000004,2.1550328831921967e-05
0.5580000000000004,2.0750316624704448e-05
0.5590000000000004,2.1450327306019774e-05
0.5600000000000004,2.3150353246356998e-05
0.5610000000000004,2.4750377660792035e-05
0.5620000000000004,2.5750392919813933e-05
0.5630000000000004,2.5850394445716122e-05
0.5640000000000004,2.555038986800955e-05
0.5650000000000004,2.5250385290302982e-05
0.5660000000000004,2.4950380712596414e-05
0.5670000000000004,2.4350371557183274e-05
0.5680000000000004,2.305035172045481e-05
0.5690000000000004,2.1150322728313206e-05
0.5700000000000004,1.9450296787975982e-05
0.5710000000000004,1.905029068436722e-05
0.5720000000000004,2.035031052109569e-05
0.5730000000000004,2.2950350194552622e-05
0.5740000000000004,2.5250385290302982e-05
0.5750000000000004,2.5750392919813933e-05
0.5760000000000004,2.395036545357452e-05
0.5770000000000004,2.055031357290007e-05
0.5780000000000004,1.745026626993219e-05
0.5790000000000004,1.615024643320372e-05
0.5800000000000004,1.705026016632343e-05
0.5810000000000004,1.9250293736171603e-05
0.5820000000000004,2.1250324254215395e-05
0.5830000000000004,2.2050336461432914e-05
0.5840000000000004,2.1350325780117585e-05
0.5850000000000004,2.0250308995193498e-05
0.5860000000000004,1.9450296787975982e-05
0.5870000000000004,1.955029831387817e-05
0.5880000000000004,1.9850302891584743e-05
0.5890000000000004,1.9750301365682554e-05
0.5900000000000004,1.8550283054856274e-05
0.5910000000000004,1.6450251010910293e-05
0.5920000000000004,1.4250217441062118e-05
0.5930000000000004,1.2950197604333654e-05
0.5940000000000004,1.2750194552529274e-05
0.5950000000000004,1.3450205233844601e-05
0.5960000000000004,1.4250217441062118e-05
0.5970000000000004,1.4550222018768688e-05
0.5980000000000004,1.435021896696431e-05
0.5990000000000004,1.375020981155117e-05
0.6000000000000004,1.3150200656138031e-05
0.6010000000000004,1.2850196078431463e-05
0.6020000000000004,1.2850196078431463e-05
0.6030000000000004,1.3150200656138031e-05
0.6040000000000004,1.3550206759746792e-05
0.6050000000000004,1.385021133745336e-05
0.6060000000000004,1.395021286335555e-05
0.6070000000000004,1.395021286335555e-05
0.6080000000000004,1.4050214389257741e-05
0.6090000000000004,1.4550222018768688e-05
0.6100000000000004,1.5150231174181827e-05
0.6110000000000004,1.5450235751888395e-05
0.6120000000000004,1.4850226596475257e-05
0.6130000000000004,1.3250202182040222e-05
0.6140000000000004,1.105016861219205e-05
0.6150000000000004,9.350142671854825e-06
0.6160000000000004,8.850135042343878e-06
0.6170000000000004,1.0150154879072342e-05
0.6180000000000004,1.2450189974822705e-05
0.6190000000000004,1.4450220492866499e-05
0.6200000000000004,1.4950228122377448e-05
0.6210000000000004,1.375020981155117e-05
0.6220000000000004,1.1550176241702999e-05
0.6230000000000004,9.850150301365774e-06
0.6240000000000004,9.550145723659204e-06
0.6250000000000004,1.065016250858329e-05
0.6260000000000004,1.2250186923018325e-05
0.6270000000000004,1.3450205233844601e-05
0.6280000000000004,1.375020981155117e-05
0.6290000000000004,1.3250202182040222e-05
0.6300000000000004,1.2550191500724895e-05
0.6310000000000004,1.1850180819409567e-05
0.6320000000000005,1.1250171663996429e-05
0.6330000000000005,1.0550160982681101e-05
0.6340000000000005,9.550145723659204e-06
0.6350000000000005,9.050138094148255e-06
0.6360000000000005,9.550145723659204e-06
0.6370000000000005,1.1750179293507378e-05
0.6380000000000005,1.5550237277790584e-05
0.6390000000000005,2.0750316624704448e-05
0.6400000000000005,2.645040360112926e-05
0.6410000000000005,3.245049515526064e-05
0.6420000000000005,3.855058823529421e-05
0.6430000000000005,4.495068589303435e-05
0.6440000000000005,5.185079118028544e-05
0.6450000000000005,5.9550908674754036e-05
0.6460000000000005,6.77510337987336e-05
0.6470000000000005,7.625116350041972e-05
0.6480000000000005,8.40512825207905e-05
0.6490000000000005,9.025137712672626e-05
0.6500000000000005,9.345142595559634e-05
0.6510000000000005,9.29514183260854e-05
0.6520000000000005,8.855135118638905e-05
0.6530000000000005,8.105123674372482e-05
0.6540000000000005,7.135108873121243e-05
0.6550000000000005,6.025091935606937e-05
0.6560000000000005,4.8250736247806604e-05
0.6570000000000005,3.545054093232633e-05
0.6580000000000005,2.1750331883726346e-05
0.6590000000000005,7.550115205615412e-06
0.6600000000000005,-6.250095368886764e-06
0.6610000000000005,-1.8850287632562666e-05
0.6620000000000005,-2.9150444800488197e-05
0.6630000000000005,-3.655055771725023e-05
0.6640000000000005,-4.055061875333782e-05
0.6650000000000005,-4.08506233310444e-05
0.6660000000000005,-3.805058060578308e-05
0.6670000000000005,-3.2850501258869216e-05
0.6680000000000005,-2.6650406652933458e-05
0.6690000000000005,-2.065031509880208e-05
0.6700000000000005,-1.5650238803692594e-05
0.6710000000000005,-1.1550176241702816e-05
0.6720000000000005,-7.65011673151742e-06
0.6730000000000005,-3.350051117723263e-06
0.6740000000000005,1.3500205996796515e-06
0.6750000000000005,5.6500862134738076e-06
0.6760000000000005,8.550130464637308e-06
0.6770000000000005,9.450144197757016e-06
0.6780000000000005,9.050138094148255e-06
0.6790000000000005,8.450128938735118e-06
0.6800000000000005,8.950136568246067e-06
0.6810000000000005,1.0550160982681101e-05
0.6820000000000005,1.2550191500724895e-05
0.6830000000000005,1.375020981155117e-05
0.6840000000000005,1.365020828564898e-05
0.6850000000000005,1.2350188448920516e-05
0.6860000000000005,1.065016250858329e-05
0.6870000000000005,9.150139620050446e-06
0.6880000000000005,8.150124361028548e-06
0.6890000000000005,7.150109102006652e-06
0.6900000000000005,5.750087739375997e-06
0.6910000000000005,4.0500617990387725e-06
0.6920000000000005,2.5500389105059273e-06
0.6930000000000005,2.2500343327993586e-06
0.6940000000000005,3.650055695430014e-06
0.6950000000000005,6.050092317082566e-06
0.6960000000000005,8.550130464637308e-06
0.6970000000000005,9.850150301365774e-06
0.6980000000000005,9.250141145952635e-06
0.6990000000000005,7.250110627908843e-06
0.7000000000000005,4.7500724803541e-06
0.7010000000000005,2.950045014114686e-06
0.7020000000000005,2.4500373846037375e-06
0.7030000000000005,3.4500526436256343e-06
0.7040000000000005,5.150078583962859e-06
0.7050000000000005,6.850104524300083e-06
0.7060000000000005,7.95012130922417e-06
0.7070000000000005,8.150124361028548e-06
0.7080000000000005,7.350112153811031e-06
0.7090000000000005,5.950090791180377e-06
0.7100000000000005,4.450067902647531e-06
0.7110000000000005,3.350051117723445e-06
0.7120000000000005,3.1500480659190656e-06
0.7130000000000005,3.7500572213322034e-06
0.7140000000000005,4.85007400625629e-06
0.7150000000000005,5.850089265278186e-06
0.7160000000000005,6.1500938429847555e-06
0.7170000000000005,5.550084687571618e-06
0.7180000000000005,4.650070954451911e-06
0.7190000000000005,3.950060273136583e-06
0.7200000000000005,4.150063324940962e-06
0.7210000000000005,5.150078583962859e-06
0.7220000000000005,6.6501014724957035e-06
0.7230000000000005,8.25012588693074e-06
0.7240000000000005,9.650147249561393e-06
0.7250000000000005,1.095016708628986e-05
0.7260000000000005,1.2450189974822705e-05
0.7270000000000005,1.4150215915159929e-05
0.7280000000000005,1.5250232700084016e-05
0.7290000000000005,1.5150231174181827e-05
0.7300000000000005,1.3450205233844601e-05
0.7310000000000005,1.095016708628986e-05
0.7320000000000005,9.050138094148255e-06
0.7330000000000005,8.950136568246067e-06
0.7340000000000005,1.115017013809424e-05
0.7350000000000005,1.4550222018768688e-05
0.7360000000000005,1.745026626993219e-05
0.7370000000000005,1.8250278477149706e-05
0.7380000000000005,1.6850257114519054e-05
0.7390000000000005,1.4050214389257741e-05
0.7400000000000005,1.1250171663996429e-05
0.7410000000000005,9.750148775463584e-06
0.7420000000000005,9.350142671854825e-06
0.7430000000000005,9.650147249561393e-06
0.7440000000000005,9.950151827267965e-06
0.7450000000000006,9.950151827267965e-06
0.7460000000000006,9.850150301365774e-06
0.7470000000000006,9.950151827267965e-06
0.7480000000000006,9.850150301365774e-06
0.7490000000000006,9.350142671854825e-06
0.7500000000000006,7.85011978332198e-06
0.7510000000000006,5.550084687571618e-06
0.7520000000000006,3.4500526436256343e-06
0.7530000000000006,2.350035858701548e-06
0.7540000000000006,2.4500373846037375e-06
0.7550000000000006,3.250049591821255e-06
0.7560000000000006,3.650055695430014e-06
0.7570000000000006,3.1500480659190656e-06
0.7580000000000006,1.8500282291905997e-06
0.7590000000000006,8.50012970168703e-07
0.7600000000000006,1.5500236514840307e-06
0.7610000000000006,4.150063324940962e-06
0.7620000000000006,7.95012130922417e-06
0.7630000000000006,1.1250171663996429e-05
0.7640000000000006,1.2650193026627084e-05
0.7650000000000006,1.1550176241702999e-05
0.7660000000000006,8.750133516441687e-06
0.7670000000000006,5.6500862134738076e-06
0.7680000000000006,3.850058747234393e-06
0.7690000000000006,3.950060273136583e-06
0.7700000000000006,5.550084687571618e-06
0.7710000000000006,7.650116731517601e-06
0.7720000000000006,9.150139620050446e-06
0.7730000000000006,9.250141145952635e-06
0.7740000000000006,8.25012588693074e-06
0.7750000000000006,6.950106050202273e-06
0.7760000000000006,6.250095368886946e-06
0.7770000000000006,6.750102998397894e-06
0.7780000000000006,8.25012588693074e-06
0.7790000000000006,9.950151827267965e-06
0.7800000000000006,1.105016861219205e-05
0.7810000000000006,1.115017013809424e-05
0.7820000000000006,1.0250156404974533e-05
0.7830000000000006,9.250141145952635e-06
0.7840000000000006,8.550130464637308e-06
0.7850000000000006,8.350127412832929e-06
0.7860000000000006,8.150124361028548e-06
0.7870000000000006,7.250110627908843e-06
0.7880000000000006,5.450083161669428e-06
0.7890000000000006,3.250049591821255e-06
0.7900000000000006,1.75002670328841e-06
0.7910000000000006,1.4500221255818411e-06
0.7920000000000006,2.5500389105059273e-06
0.7930000000000006,3.950060273136583e-06
0.7940000000000006,4.85007400625629e-06
0.7950000000000006,4.5500694285497205e-06
0.7960000000000006,3.950060273136583e-06
0.7970000000000006,4.150063324940962e-06
0.7980000000000006,5.950090791180377e-06
0.7990000000000006,8.850135042343878e-06
0.8000000000000006,1.1650177767605187e-05
0.8010000000000006,1.2450189974822705e-05
0.8020000000000006,1.0850165560387671e-05
0.8030000000000006,7.350112153811031e-06
0.8040000000000006,3.850058747234393e-06
0.8050000000000006,2.350035858701548e-06
0.8060000000000006,3.250049591821255e-06
0.8070000000000006,6.1500938429847555e-06
0.8080000000000006,9.550145723659204e-06
0.8090000000000006,1.1850180819409567e-05
0.8100000000000006,1.2350188448920516e-05
0.8110000000000006,1.1550176241702999e-05
0.8120000000000006,1.0050153353170152e-05
0.8130000000000006,8.650131990539497e-06
0.8140000000000006,7.75011825741979e-06
0.8150000000000006,7.4501136797132214e-06
0.8160000000000006,7.550115205615412e-06
0.8170000000000006,7.95012130922417e-06
0.8180000000000006,8.650131990539497e-06
0.8190000000000006,9.350142671854825e-06
0.8200000000000006,9.750148775463584e-06
0.8210000000000006,9.550145723659204e-06
0.8220000000000006,8.350127412832929e-06
0.8230000000000006,6.250095368886946e-06
0.8240000000000006,3.7500572213322034e-06
0.8250000000000006,1.5500236514840307e-06
0.8260000000000006,1.500022888533753e-07
0.8270000000000006,-5.000076295100407e-08
0.8280000000000006,7.500114442665133e-07
0.8290000000000006,2.1500328068971688e-06
0.8300000000000006,3.650055695430014e-06
0.8310000000000006,4.95007553215848e-06
0.8320000000000006,5.6500862134738076e-06
0.8330000000000006,5.550084687571618e-06
0.8340000000000006,4.450067902647531e-06
0.8350000000000006,2.750041962310307e-06
0.8360000000000006,9.500144960708927e-07
0.8370000000000006,2.50003814755565e-07
0.8380000000000006,1.150017547875272e-06
0.8390000000000006,3.550054169527824e-06
0.8400000000000006,6.1500938429847555e-06
0.8410000000000006,7.350112153811031e-06
0.8420000000000006,6.250095368886946e-06
0.8430000000000006,3.050046540016876e-06
0.8440000000000006,-7.500114442663317e-07
0.8450000000000006,-3.350051117723263e-06
0.8460000000000006,-3.6500556954298323e-06
0.8470000000000006,-2.250034332799177e-06
0.8480000000000006,-6.500099183641421e-07
0.8490000000000006,-4.5000686655976273e-07
0.8500000000000006,-2.150032806896987e-06
0.8510000000000006,-4.950075532158298e-06
0.8520000000000006,-7.35011215381085e-06
0.8530000000000006,-8.350127412832748e-06
0.8540000000000006,-7.75011825741961e-06
0.8550000000000006,-6.550099946593333e-06
0.8560000000000006,-5.550084687571436e-06
0.8570000000000007,-4.950075532158298e-06
0.8580000000000007,-4.35006637674516e-06
0.8590000000000007,-3.150048065918884e-06
0.8600000000000007,-1.2500190737772801e-06
0.8610000000000007,5.50008392462134e-07
0.8620000000000007,1.4500221255818411e-06
0.8630000000000007,9.500144960708927e-07
0.8640000000000007,-6.500099183641421e-07
0.8650000000000007,-2.3500358587013664e-06
0.8660000000000007,-3.450052643625453e-06
0.8670000000000007,-3.550054169527643e-06
0.8680000000000007,-3.450052643625453e-06
0.8690000000000007,-3.950060273136401e-06
0.8700000000000007,-5.550084687571436e-06
0.8710000000000007,-7.950121309223988e-06
0.8720000000000007,-1.0050153353169971e-05
0.8730000000000007,-1.095016708628968e-05
0.8740000000000007,-1.0250156404974352e-05
0.8750000000000007,-8.550130464637126e-06
0.8760000000000007,-6.850104524299902e-06
0.8770000000000007,-6.250095368886764e-06
0.8780000000000007,-6.750102998397712e-06
0.8790000000000007,-7.850119783321799e-06
0.8800000000000007,-8.350127412832748e-06
0.8810000000000007,-7.850119783321799e-06
0.8820000000000007,-6.450098420691143e-06
0.8830000000000007,-5.250080109864867e-06
0.8840000000000007,-5.450083161669247e-06
0.8850000000000007,-7.35011215381085e-06
0.8860000000000007,-1.015015487907216e-05
0.8870000000000007,-1.2450189974822524e-05
0.8880000000000007,-1.305019913023566e-05
0.8890000000000007,-1.1750179293507196e-05
0.8900000000000007,-9.250141145952454e-06
0.8910000000000007,-6.850104524299902e-06
0.8920000000000007,-5.650086213473626e-06
0.8930000000000007,-5.650086213473626e-06
0.8940000000000007,-6.350096894788953e-06
0.8950000000000007,-6.850104524299902e-06
0.8960000000000007,-6.850104524299902e-06
0.8970000000000007,-6.450098420691143e-06
0.8980000000000007,-6.150093842984574e-06
0.8990000000000007,-6.350096894788953e-06
0.9000000000000007,-6.950106050202092e-06
0.9010000000000007,-7.35011215381085e-06
0.9020000000000007,-7.150109102006471e-06
0.9030000000000007,-6.350096894788953e-06
0.9040000000000007,-5.250080109864867e-06
0.9050000000000007,-4.750072480353919e-06
0.9060000000000007,-5.050077058060488e-06
0.9070000000000007,-5.550084687571436e-06
0.9080000000000007,-5.450083161669247e-06
0.9090000000000007,-4.150063324940781e-06
0.9100000000000007,-1.6500251773860387e-06
0.9110000000000007,8.50012970168703e-07
0.9120000000000007,1.9500297550927895e-06
0.9130000000000007,7.500114442665133e-07
0.9140000000000007,-2.0500312809947977e-06
0.9150000000000007,-4.6500709544517295e-06
0.9160000000000007,-5.450083161669247e-06
0.9170000000000007,-3.8500587472342116e-06
0.9180000000000007,-9.50014496070711e-07
0.9190000000000007,1.2500190737774616e-06
0.9200000000000007,1.150017547875272e-06
0.9210000000000007,-1.2500190737772801e-06
0.9220000000000007,-4.150063324940781e-06
0.9230000000000007,-5.650086213473626e-06
0.9240000000000007,-4.35006637674516e-06
0.9250000000000007,-9.50014496070711e-07
0.9260000000000007,2.5500389105059273e-06
0.9270000000000007,3.950060273136583e-06
0.9280000000000007,2.2500343327993586e-06
0.9290000000000007,-1.8500282291904182e-06
0.9300000000000007,-6.150093842984574e-06
0.9310000000000007,-8.750133516441505e-06
0.9320000000000007,-8.650131990539316e-06
0.9330000000000007,-6.550099946593333e-06
0.9340000000000007,-4.150063324940781e-06
0.9350000000000007,-3.150048065918884e-06
0.9360000000000007,-4.35006637674516e-06
0.9370000000000007,-6.950106050202092e-06
0.9380000000000007,-8.950136568245884e-06
0.9390000000000007,-8.950136568245884e-06
0.9400000000000007,-6.450098420691143e-06
0.9410000000000007,-2.6500404364079355e-06
0.9420000000000007,5.50008392462134e-07
0.9430000000000007,1.4500221255818411e-06
0.9440000000000007,-1.5000228885319374e-07
0.9450000000000007,-2.9500450141145046e-06
0.9460000000000007,-4.950075532158298e-06
0.9470000000000007,-4.6500709544517295e-06
0.9480000000000007,-2.250034332799177e-06
0.9490000000000007,8.50012970168703e-07
0.9500000000000007,2.750041962310307e-06
0.9510000000000007,2.350035858701548e-06
0.9520000000000007,3.500053406577546e-07
0.9530000000000007,-1.7500267032882285e-06
0.9540000000000007,-2.4500373846035562e-06
0.9550000000000007,-9.50014496070711e-07
0.9560000000000007,1.8500282291905997e-06
0.9570000000000007,4.5500694285497205e-06
0.9580000000000007,6.050092317082566e-06
0.9590000000000007,6.1500938429847555e-06
0.9600000000000007,5.450083161669428e-06
0.9610000000000007,4.5500694285497205e-06
0.9620000000000007,3.950060273136583e-06
0.9630000000000007,3.350051117723445e-06
0.9640000000000007,2.050031280994979e-06
0.9650000000000007,5.00007629511856e-08
0.9660000000000007,-2.4500373846035562e-06
0.9670000000000007,-4.450067902647349e-06
0.9680000000000007,-5.050077058060488e-06
0.9690000000000007,-3.8500587472342116e-06
0.9700000000000008,-1.2500190737772801e-06
0.9710000000000008,1.75002670328841e-06
0.9720000000000008,4.150063324940962e-06
0.9730000000000008,5.0500770580606685e-06
0.9740000000000008,4.250064850843152e-06
0.9750000000000008,2.350035858701548e-06
0.9760000000000008,2.50003814755565e-07
0.9770000000000008,-1.0500160219729009e-06
0.9780000000000008,-1.1500175478750905e-06
0.9790000000000008,-2.500038147553834e-07
0.9800000000000008,8.50012970168703e-07
0.9810000000000008,1.4500221255818411e-06
0.9820000000000008,1.0500160219730823e-06
0.9830000000000008,-1.5000228885319374e-07
0.9840000000000008,-1.6500251773860387e-06
0.9850000000000008,-2.6500404364079355e-06
0.9860000000000008,-3.0500465400166945e-06
0.9870000000000008,-3.0500465400166945e-06
0.9880000000000008,-3.450052643625453e-06
0.9890000000000008,-4.450067902647349e-06
0.9900000000000008,-5.650086213473626e-06
0.9910000000000008,-6.350096894788953e-06
0.9920000000000008,-5.850089265278005e-06
0.9930000000000008,-4.050061799038591e-06
0.9940000000000008,-2.0500312809947977e-06
0.9950000000000008,-1.1500175478750905e-06
0.9960000000000008,-2.3500358587013664e-06
0.9970000000000008,-5.350081635767057e-06
0.9980000000000008,-9.050138094148074e-06
0.9990000000000008,-1.2050183871213765e-05
1.0000000000000007,-1.355020675974661e-05
1.0010000000000006,-1.3650208285648799e-05
1.0020000000000004,-1.315020065613785e-05
1.0030000000000003,-1.2650193026626903e-05
1.0040000000000002,-1.2450189974822524e-05
1.0050000000000001,-1.2150185397115954e-05
1.006,-1.1450174715800628e-05
1.007,-1.055016098268092e-05
1.0079999999999998,-9.850150301365592e-06
1.0089999999999997,-9.950151827267782e-06
1.0099999999999996,-1.095016708628968e-05
1.0109999999999995,-1.2450189974822524e-05
1.0119999999999993,-1.385021133745318e-05
1.0129999999999992,-1.4750225070572886e-05
1.0139999999999991,-1.5350234225986026e-05
1.014999999999999,-1.5850241855496973e-05
1.015999999999999,-1.645025101091011e-05
1.0169999999999988,-1.6950258640421057e-05
1.0179999999999987,-1.675025558861668e-05
1.0189999999999986,-1.5550237277790405e-05
1.0199999999999985,-1.355020675974661e-05
1.0209999999999984,-1.1350173189898437e-05
1.0219999999999982,-1.015015487907216e-05
1.0229999999999981,-1.055016098268092e-05
1.023999999999998,-1.2450189974822524e-05
1.024999999999998,-1.5050229648279456e-05
1.0259999999999978,-1.6950258640421057e-05
1.0269999999999977,-1.6950258640421057e-05
1.0279999999999976,-1.4950228122377267e-05
1.0289999999999975,-1.1550176241702816e-05
1.0299999999999974,-8.250125886930558e-06
1.0309999999999973,-6.650101472495523e-06
1.0319999999999971,-7.35011215381085e-06
1.032999999999997,-1.0250156404974352e-05
1.033999999999997,-1.4050214389257558e-05
1.0349999999999968,-1.715026169222544e-05
1.0359999999999967,-1.8650284580758284e-05
1.0369999999999966,-1.8350280003051715e-05
1.0379999999999965,-1.7050260166323246e-05
1.0389999999999964,-1.5750240329594784e-05
1.0399999999999963,-1.5050229648279456e-05
1.0409999999999962,-1.5050229648279456e-05
1.041999999999996,-1.5150231174181644e-05
1.042999999999996,-1.5050229648279456e-05
1.0439999999999958,-1.4350218966964128e-05
1.0449999999999957,-1.355020675974661e-05
1.0459999999999956,-1.2950197604333473e-05
1.0469999999999955,-1.2850196078431282e-05
1.0479999999999954,-1.305019913023566e-05
1.0489999999999953,-1.305019913023566e-05
1.0499999999999952,-1.2350188448920335e-05
1.050999999999995,-1.1050168612191867e-05
1.051999999999995,-9.750148775463403e-06
1.0529999999999948,-8.950136568245884e-06
1.0539999999999947,-9.050138094148074e-06
1.0549999999999946,-1.015015487907216e-05
1.0559999999999945,-1.1550176241702816e-05
1.0569999999999944,-1.2650193026626903e-05
1.0579999999999943,-1.315020065613785e-05
1.0589999999999942,-1.315020065613785e-05
1.059999999999994,-1.2950197604333473e-05
1.060999999999994,-1.2450189974822524e-05
1.0619999999999938,-1.1650177767605005e-05
1.0629999999999937,-1.055016098268092e-05
1.0639999999999936,-9.350142671854645e-06
1.0649999999999935,-8.550130464637126e-06
1.0659999999999934,-8.850135042343696e-06
1.0669999999999933,-1.015015487907216e-05
1.0679999999999932,-1.1750179293507196e-05
1.068999999999993,-1.2650193026626903e-05
1.069999999999993,-1.2150185397115954e-05
1.0709999999999928,-1.0450159456778729e-05
1.0719999999999927,-8.850135042343696e-06
1.0729999999999926,-8.650131990539316e-06
1.0739999999999925,-1.0250156404974352e-05
1.0749999999999924,-1.2650193026626903e-05
1.0759999999999923,-1.4250217441061937e-05
1.0769999999999922,-1.375020981155099e-05
1.077999999999992,-1.1150170138094058e-05
1.078999999999992,-7.950121309223988e-06
1.0799999999999919,-6.050092317082384e-06
1.0809999999999917,-6.450098420691143e-06
1.0819999999999916,-9.050138094148074e-06
1.0829999999999915,-1.2250186923018144e-05
1.0839999999999914,-1.4350218966964128e-05
1.0849999999999913,-1.4550222018768505e-05
1.0859999999999912,-1.335020370794223e-05
1.086999999999991,-1.2050183871213765e-05
1.087999999999991,-1.2050183871213765e-05
1.0889999999999909,-1.355020675974661e-05
1.0899999999999908,-1.5850241855496973e-05
1.0909999999999906,-1.7550267795834197e-05
1.0919999999999905,-1.7450266269932007e-05
1.0929999999999904,-1.5250232700083835e-05
1.0939999999999903,-1.2050183871213765e-05
1.0949999999999902,-9.950151827267782e-06
1.09599999999999,-1.015015487907216e-05
1.09699999999999,-1.305019913023566e-05
1.0979999999999899,-1.715026169222544e-05
1.0989999999999898,-2.0350310521095507e-05
1.0999999999999897,-2.0450312046997697e-05
1.1009999999999895,-1.715026169222544e-05
1.1019999999999894,-1.1750179293507196e-05
1.1029999999999893,-6.650101472495523e-06
1.1039999999999892,-3.450052643625453e-06
1.104999999999989,-2.550038910505746e-06
1.105999999999989,-2.250034332799177e-06
1.1069999999999889,-5.000076295100407e-08
1.1079999999999888,6.050092317082566e-06
1.1089999999999887,1.5950243381399345e-05
1.1099999999999886,2.8150429541466486e-05
1.1109999999999884,4.045061722743581e-05
1.1119999999999883,5.095077744716573e-05
1.1129999999999882,5.9350905622949664e-05
1.113999999999988,6.615100938429855e-05
1.114999999999988,7.175109483482119e-05
1.115999999999988,7.585115739681096e-05
1.1169999999999878,7.755118333714819e-05
1.1179999999999877,7.525114824139782e-05
1.1189999999999876,6.835104295414673e-05
1.1199999999999875,5.745087663080806e-05
1.1209999999999873,4.395067063401245e-05
1.1219999999999872,2.9650452429999327e-05
1.1229999999999871,1.5950243381399345e-05
1.123999999999987,3.1500480659190656e-06
1.124999999999987,-9.250141145952454e-06
1.1259999999999868,-2.1550328831921784e-05
1.1269999999999867,-3.355051194018455e-05
1.1279999999999866,-4.445067826352322e-05
1.1289999999999865,-5.3050809491111534e-05
1.1299999999999863,-5.825088883802539e-05
1.1309999999999862,-5.995091477836262e-05
1.1319999999999861,-5.815088731212321e-05
1.132999999999986,-5.375082017242686e-05
1.133999999999986,-4.735072251468672e-05
1.1349999999999858,-4.0050611123826875e-05
1.1359999999999857,-3.2750499732967027e-05
1.1369999999999856,-2.6250400549324697e-05
1.1379999999999855,-2.1550328831921784e-05
1.1389999999999854,-1.8650284580758284e-05
1.1399999999999852,-1.725026321812763e-05
1.1409999999999851,-1.6550252536812302e-05
1.141999999999985,-1.5650238803692594e-05
1.142999999999985,-1.4150215915159748e-05
1.1439999999999848,-1.1850180819409386e-05
1.1449999999999847,-9.250141145952454e-06
1.1459999999999846,-6.950106050202092e-06
1.1469999999999845,-5.250080109864867e-06
1.1479999999999844,-4.35006637674516e-06
1.1489999999999843,-4.150063324940781e-06
1.1499999999999841,-4.450067902647349e-06
1.150999999999984,-5.1500785839626775e-06
1.151999999999984,-6.050092317082384e-06
1.1529999999999838,-7.050107576104281e-06
1.1539999999999837,-7.950121309223988e-06
1.1549999999999836,-8.750133516441505e-06
1.1559999999999835,-9.550145723659022e-06
1.1569999999999834,-1.0450159456778729e-05
1.1579999999999833,-1.1450174715800628e-05
1.1589999999999832,-1.2450189974822524e-05
1.159999999999983,-1.305019913023566e-05
1.160999999999983,-1.2750194552529092e-05
1.1619999999999828,-1.1650177767605005e-05
1.1629999999999827,-9.850150301365592e-06
1.1639999999999826,-8.250125886930558e-06
1.1649999999999825,-7.2501106279086605e-06
1.1659999999999824,-7.2501106279086605e-06
1.1669999999999823,-7.950121309223988e-06
1.1679999999999822,-8.950136568245884e-06
1.168999999999982,-9.650147249561213e-06
1.169999999999982,-9.750148775463403e-06
1.1709999999999818,-9.350142671854645e-06
1.1719999999999817,-8.750133516441505e-06
1.1729999999999816,-8.250125886930558e-06
1.1739999999999815,-7.950121309223988e-06
1.1749999999999814,-7.850119783321799e-06
1.1759999999999813,-7.850119783321799e-06
1.1769999999999812,-8.050122835126178e-06
1.177999999999981,-8.650131990539316e-06
1.178999999999981,-9.650147249561213e-06
1.1799999999999808,-1.0450159456778729e-05
1.1809999999999807,-1.0450159456778729e-05
1.1819999999999806,-9.150139620050265e-06
1.1829999999999805,-6.650101472495523e-06
1.1839999999999804,-3.950060273136401e-06
1.1849999999999803,-2.250034332799177e-06
1.1859999999999802,-2.550038910505746e-06
1.18699999999998,-4.750072480353919e-06
1.18799999999998,-7.55011520561523e-06
1.1889999999999799,-9.450144197756833e-06
1.1899999999999797,-9.650147249561213e-06
1.1909999999999796,-8.350127412832748e-06
1.1919999999999795,-6.650101472495523e-06
1.1929999999999794,-5.550084687571436e-06
1.1939999999999793,-5.650086213473626e-06
1.1949999999999792,-6.250095368886764e-06
1.195999999999979,-6.650101472495523e-06
1.196999999999979,-6.350096894788953e-06
1.1979999999999789,-5.650086213473626e-06
1.1989999999999787,-5.1500785839626775e-06
1.1999999999999786,-5.350081635767057e-06
1.2009999999999785,-5.750087739375815e-06
1.2019999999999784,-5.850089265278005e-06
1.2029999999999783,-5.050077058060488e-06
1.2039999999999782,-3.350051117723263e-06
1.204999999999978,-1.8500282291904182e-06
1.205999999999978,-1.3500205996794698e-06
1.2069999999999779,-2.3500358587013664e-06
1.2079999999999778,-4.25006485084297e-06
1.2089999999999776,-6.250095368886764e-06
1.2099999999999775,-7.55011520561523e-06
1.2109999999999774,-8.250125886930558e-06
1.2119999999999773,-8.650131990539316e-06
1.2129999999999772,-9.350142671854645e-06
1.213999999999977,-9.950151827267782e-06
1.214999999999977,-1.0050153353169971e-05
1.2159999999999769,-8.950136568245884e-06
1.2169999999999768,-6.650101472495523e-06
1.2179999999999767,-3.6500556954298323e-06
1.2189999999999765,-1.2500190737772801e-06
1.2199999999999764,-3.500053406575731e-07
1.2209999999999763,-1.1500175478750905e-06
1.2219999999999762,-3.2500495918210737e-06
1.222999999999976,-5.850089265278005e-06
1.223999999999976,-8.050122835126178e-06
1.2249999999999759,-9.250141145952454e-06
1.2259999999999758,-9.250141145952454e-06
1.2269999999999757,-7.950121309223988e-06
1.2279999999999756,-5.950090791180195e-06
1.2289999999999754,-4.050061799038591e-06
1.2299999999999753,-3.150048065918884e-06
1.2309999999999752,-3.6500556954298323e-06
1.2319999999999751,-5.450083161669247e-06
1.232999999999975,-7.75011825741961e-06
1.233999999999975,-9.450144197756833e-06
1.2349999999999748,-9.850150301365592e-06
1.2359999999999747,-9.050138094148074e-06
1.2369999999999746,-7.75011825741961e-06
1.2379999999999745,-6.650101472495523e-06
1.2389999999999743,-5.850089265278005e-06
1.2399999999999742,-5.250080109864867e-06
1.2409999999999741,-4.550069428549539e-06
1.241999999999974,-3.7500572213320217e-06
1.242999999999974,-3.6500556954298323e-06
1.2439999999999738,-4.550069428549539e-06
1.2449999999999737,-6.550099946593333e-06
1.2459999999999736,-8.550130464637126e-06
1.2469999999999735,-9.550145723659022e-06
1.2479999999999734,-8.750133516441505e-06
1.2489999999999732,-6.550099946593333e-06
1.2499999999999731,-4.25006485084297e-06
1.250999999999973,-3.150048065918884e-06
1.251999999999973,-3.7500572213320217e-06
1.2529999999999728,-5.250080109864867e-06
1.2539999999999727,-6.550099946593333e-06
1.2549999999999726,-6.550099946593333e-06
1.2559999999999725,-5.1500785839626775e-06
1.2569999999999724,-3.0500465400166945e-06
1.2579999999999723,-1.3500205996794698e-06
1.2589999999999721,-8.500129701685215e-07
1.259999999999972,-1.7500267032882285e-06
1.260999999999972,-3.6500556954298323e-06
1.2619999999999718,-5.850089265278005e-06
1.2629999999999717,-7.55011520561523e-06
1.2639999999999716,-8.050122835126178e-06
1.2649999999999715,-7.150109102006471e-06
1.2659999999999714,-5.350081635767057e-06
1.2669999999999713,-3.450052643625453e-06
1.2679999999999712,-2.7500419623101253e-06
1.268999999999971,-3.950060273136401e-06
1.269999999999971,-6.550099946593333e-06
1.2709999999999708,-9.750148775463403e-06
1.2719999999999707,-1.1950182345311575e-05
1.2729999999999706,-1.2350188448920335e-05
1.2739999999999705,-1.1150170138094058e-05
1.2749999999999704,-9.350142671854645e-06
1.2759999999999703,-8.150124361028367e-06
1.2769999999999702,-8.150124361028367e-06
1.27799999999997,-9.150139620050265e-06
1.27899999999997,-1.0350157930876541e-05
1.2799999999999698,-1.1050168612191867e-05
1.2809999999999697,-1.065016250858311e-05
1.2819999999999696,-9.650147249561213e-06
1.2829999999999695,-8.550130464637126e-06
1.2839999999999694,-8.250125886930558e-06
1.2849999999999693,-8.950136568245884e-06
1.2859999999999692,-1.055016098268092e-05
1.286999999999969,-1.2450189974822524e-05
1.287999999999969,-1.355020675974661e-05
1.2889999999999688,-1.3250202182040041e-05
1.2899999999999687,-1.1450174715800628e-05
1.2909999999999686,-8.850135042343696e-06
1.2919999999999685,-6.650101472495523e-06
1.2929999999999684,-5.850089265278005e-06
1.2939999999999683,-6.350096894788953e-06
1.2949999999999682,-7.55011520561523e-06
1.295999999999968,-8.250125886930558e-06
1.296999999999968,-7.850119783321799e-06
1.2979999999999678,-6.950106050202092e-06
1.2989999999999677,-6.850104524299902e-06
1.2999999999999676,-8.350127412832748e-06
1.3009999999999675,-1.1350173189898437e-05
1.3019999999999674,-1.4350218966964128e-05
1.3029999999999673,-1.5750240329594784e-05
1.3039999999999672,-1.4750225070572886e-05
1.304999999999967,-1.1850180819409386e-05
1.305999999999967,-8.850135042343696e-06
1.3069999999999669,-7.150109102006471e-06
1.3079999999999667,-7.150109102006471e-06
1.3089999999999666,-7.950121309223988e-06
1.3099999999999665,-8.250125886930558e-06
1.3109999999999664,-7.45011367971304e-06
1.3119999999999663,-6.250095368886764e-06
1.3129999999999662,-6.050092317082384e-06
1.313999999999966,-7.950121309223988e-06
1.314999999999966,-1.1550176241702816e-05
1.3159999999999659,-1.5650238803692594e-05
1.3169999999999658,-1.8450281528953905e-05
1.3179999999999656,-1.905029068436704e-05
1.3189999999999655,-1.7450266269932007e-05
1.3199999999999654,-1.4650223544670697e-05
1.3209999999999653,-1.1950182345311575e-05
1.3219999999999652,-1.0050153353169971e-05
1.322999999999965,-9.250141145952454e-06
1.323999999999965,-9.750148775463403e-06
1.3249999999999649,-1.1150170138094058e-05
1.3259999999999648,-1.315020065613785e-05
1.3269999999999647,-1.5050229648279456e-05
1.3279999999999645,-1.645025101091011e-05
1.3289999999999644,-1.7050260166323246e-05
1.3299999999999643,-1.7050260166323246e-05
1.3309999999999642,-1.6550252536812302e-05
1.331999999999964,-1.615024643320354e-05
1.332999999999964,-1.5650238803692594e-05
1.3339999999999639,-1.4650223544670697e-05
1.3349999999999638,-1.2750194552529092e-05
1.3359999999999637,-1.0050153353169971e-05
1.3369999999999636,-7.050107576104281e-06
1.3379999999999634,-4.850074006256108e-06
1.3389999999999633,-4.150063324940781e-06
1.3399999999999632,-4.850074006256108e-06
1.340999999999963,-6.350096894788953e-06
1.341999999999963,-7.45011367971304e-06
1.342999999999963,-7.850119783321799e-06
1.3439999999999628,-7.65011673151742e-06
1.3449999999999627,-7.2501106279086605e-06
1.3459999999999626,-7.45011367971304e-06
1.3469999999999624,-8.450128938734935e-06
1.3479999999999623,-9.650147249561213e-06
1.3489999999999622,-1.0450159456778729e-05
1.3499999999999621,-1.0250156404974352e-05
1.350999999999962,-8.850135042343696e-06
1.351999999999962,-6.850104524299902e-06
1.3529999999999618,-4.850074006256108e-06
1.3539999999999617,-3.450052643625453e-06
1.3549999999999616,-3.2500495918210737e-06
1.3559999999999615,-4.25006485084297e-06
1.3569999999999613,-6.150093842984574e-06
1.3579999999999612,-8.550130464637126e-06
1.3589999999999611,-1.095016708628968e-05
1.359999999999961,-1.2950197604333473e-05
1.360999999999961,-1.385021133745318e-05
1.3619999999999608,-1.3450205233844422e-05
1.3629999999999607,-1.1950182345311575e-05
1.3639999999999606,-9.750148775463403e-06
1.3649999999999605,-7.65011673151742e-06
1.3659999999999604,-6.550099946593333e-06
1.3669999999999602,-6.650101472495523e-06
1.3679999999999601,-7.850119783321799e-06
1.36899999999996,-9.150139620050265e-06
1.36999999999996,-9.750148775463403e-06
1.3709999999999598,-9.350142671854645e-06
1.3719999999999597,-8.050122835126178e-06
1.3729999999999596,-6.650101472495523e-06
1.3739999999999595,-5.750087739375815e-06
1.3749999999999594,-5.750087739375815e-06
1.3759999999999593,-6.350096894788953e-06
1.3769999999999591,-7.35011215381085e-06
1.377999999999959,-8.650131990539316e-06
1.378999999999959,-9.850150301365592e-06
1.3799999999999588,-1.085016556038749e-05
1.3809999999999587,-1.1250171663996248e-05
1.3819999999999586,-1.065016250858311e-05
1.3829999999999585,-9.150139620050265e-06
1.3839999999999584,-6.850104524299902e-06
1.3849999999999583,-4.550069428549539e-06
1.3859999999999582,-2.6500404364079355e-06
1.386999999999958,-1.4500221255816596e-06
1.387999999999958,-7.500114442663317e-07
1.3889999999999578,-4.5000686655976273e-07
1.3899999999999577,-7.500114442663317e-07
1.3909999999999576,-1.8500282291904182e-06
1.3919999999999575,-3.7500572213320217e-06
1.3929999999999574,-6.050092317082384e-06
1.3939999999999573,-7.75011825741961e-06
1.3949999999999572,-7.950121309223988e-06
1.395999999999957,-6.450098420691143e-06
1.396999999999957,-4.35006637674516e-06
1.3979999999999568,-2.8500434882123148e-06
1.3989999999999567,-3.0500465400166945e-06
1.3999999999999566,-5.050077058060488e-06
1.4009999999999565,-7.850119783321799e-06
1.4019999999999564,-9.950151827267782e-06
1.4029999999999563,-1.0350157930876541e-05
1.4039999999999562,-8.950136568245884e-06
1.404999999999956,-6.650101472495523e-06
1.405999999999956,-4.550069428549539e-06
1.4069999999999558,-3.350051117723263e-06
1.4079999999999557,-3.150048065918884e-06
1.4089999999999556,-3.7500572213320217e-06
1.4099999999999555,-4.550069428549539e-06
1.4109999999999554,-4.850074006256108e-06
1.4119999999999553,-4.450067902647349e-06
1.4129999999999552,-3.2500495918210737e-06
1.413999999999955,-1.8500282291904182e-06
1.414999999999955,-4.5000686655976273e-07
1.4159999999999549,3.500053406577546e-07
1.4169999999999547,4.500068665599443e-07
1.4179999999999546,5.00007629511856e-08
1.4189999999999545,-3.500053406575731e-07
1.4199999999999544,-4.5000686655976273e-07
1.4209999999999543,-2.500038147553834e-07
1.4219999999999542,-5.000076295100407e-08
1.422999999999954,-5.000076295100407e-08
1.423999999999954,-4.5000686655976273e-07
1.4249999999999539,-9.50014496070711e-07
1.4259999999999537,-1.1500175478750905e-06
1.4269999999999536,-9.50014496070711e-07
1.4279999999999535,-3.500053406575731e-07
1.4289999999999534,1.500022888533753e-07
1.4299999999999533,1.500022888533753e-07
1.4309999999999532,-3.500053406575731e-07
1.431999999999953,-1.3500205996794698e-06
1.432999999999953,-2.250034332799177e-06
1.4339999999999529,-2.8500434882123148e-06
1.4349999999999528,-2.9500450141145046e-06
1.4359999999999526,-2.7500419623101253e-06
1.4369999999999525,-2.550038910505746e-06
1.4379999999999524,-2.6500404364079355e-06
1.4389999999999523,-2.7500419623101253e-06
1.4399999999999522,-2.9500450141145046e-06
1.440999999999952,-3.0500465400166945e-06
1.441999999999952,-3.150048065918884e-06
1.4429999999999519,-3.2500495918210737e-06
1.4439999999999518,-3.6500556954298323e-06
1.4449999999999517,-4.35006637674516e-06
1.4459999999999515,-5.1500785839626775e-06
1.4469999999999514,-5.850089265278005e-06
1.4479999999999513,-6.150093842984574e-06
1.4489999999999512,-6.150093842984574e-06
1.449999999999951,-6.050092317082384e-06
1.450999999999951,-5.950090791180195e-06
1.4519999999999509,-5.950090791180195e-06
1.4529999999999508,-5.950090791180195e-06
1.4539999999999507,-5.550084687571436e-06
1.4549999999999506,-4.550069428549539e-06
1.4559999999999504,-3.2500495918210737e-06
1.4569999999999503,-2.250034332799177e-06
1.4579999999999502,-2.250034332799177e-06
1.4589999999999501,-3.8500587472342116e-06
1.45999999999995,-6.550099946593333e-06
1.46099999999995,-9.650147249561213e-06
1.4619999999999498,-1.1650177767605005e-05
1.4629999999999497,-1.1750179293507196e-05
1.4639999999999496,-9.750148775463403e-06
1.4649999999999495,-6.650101472495523e-06
1.4659999999999493,-3.8500587472342116e-06
1.4669999999999492,-2.4500373846035562e-06
1.4679999999999491,-2.9500450141145046e-06
1.468999999999949,-4.550069428549539e-06
1.469999999999949,-6.150093842984574e-06
1.4709999999999488,-6.850104524299902e-06
1.4719999999999487,-6.650101472495523e-06
1.4729999999999486,-6.150093842984574e-06
1.4739999999999485,-6.150093842984574e-06
1.4749999999999484,-6.650101472495523e-06
1.4759999999999482,-7.35011215381085e-06
1.4769999999999481,-7.35011215381085e-06
1.477999999999948,-6.250095368886764e-06
1.478999999999948,-4.6500709544517295e-06
1.4799999999999478,-3.450052643625453e-06
1.4809999999999477,-3.550054169527643e-06
1.4819999999999476,-5.050077058060488e-06
1.4829999999999475,-6.850104524299902e-06
1.4839999999999474,-7.850119783321799e-06
1.4849999999999473,-7.45011367971304e-06
1.4859999999999471,-6.050092317082384e-06
1.486999999999947,-4.750072480353919e-06
1.487999999999947,-4.750072480353919e-06
1.4889999999999468,-6.550099946593333e-06
1.4899999999999467,-9.450144197756833e-06
1.4909999999999466,-1.2450189974822524e-05
1.4919999999999465,-1.4550222018768505e-05
1.4929999999999464,-1.5550237277790405e-05
1.4939999999999463,-1.5450235751888215e-05
1.4949999999999461,-1.4850226596475075e-05
1.495999999999946,-1.3950212863355369e-05
1.496999999999946,-1.2750194552529092e-05
1.4979999999999458,-1.1250171663996248e-05
1.4989999999999457,-9.650147249561213e-06
1.4999999999999456,-8.550130464637126e-06
1.5009999999999455,-8.550130464637126e-06
1.5019999999999454,-9.550145723659022e-06
1.5029999999999453,-1.1450174715800628e-05
1.5039999999999452,-1.3250202182040041e-05
1.504999999999945,-1.4250217441061937e-05
1.505999999999945,-1.4250217441061937e-05
1.5069999999999448,-1.335020370794223e-05
1.5079999999999447,-1.2050183871213765e-05
1.5089999999999446,-1.095016708628968e-05
1.5099999999999445,-1.0050153353169971e-05
1.5109999999999444,-9.250141145952454e-06
1.5119999999999443,-8.350127412832748e-06
1.5129999999999442,-7.55011520561523e-06
1.513999999999944,-7.150109102006471e-06
1.514999999999944,-7.950121309223988e-06
1.5159999999999438,-9.850150301365592e-06
1.5169999999999437,-1.2450189974822524e-05
1.5179999999999436,-1.4750225070572886e-05
1.5189999999999435,-1.5750240329594784e-05
1.5199999999999434,-1.5350234225986026e-05
1.5209999999999433,-1.385021133745318e-05
1.5219999999999432,-1.2250186923018144e-05
1.522999999999943,-1.1250171663996248e-05
1.523999999999943,-1.095016708628968e-05
1.5249999999999428,-1.095016708628968e-05
1.5259999999999427,-1.0450159456778729e-05
1.5269999999999426,-9.550145723659022e-06
1.5279999999999425,-8.750133516441505e-06
1.5289999999999424,-8.550130464637126e-06
1.5299999999999423,-9.250141145952454e-06
1.5309999999999422,-1.055016098268092e-05
1.531999999999942,-1.1650177767605005e-05
1.532999999999942,-1.1850180819409386e-05
1.5339999999999419,-1.085016556038749e-05
1.5349999999999417,-9.350142671854645e-06
1.5359999999999416,-8.150124361028367e-06
1.5369999999999415,-7.950121309223988e-06
1.5379999999999414,-8.850135042343696e-06
1.5389999999999413,-1.0250156404974352e-05
1.5399999999999412,-1.1150170138094058e-05
1.540999999999941,-1.095016708628968e-05
1.541999999999941,-9.450144197756833e-06
1.5429999999999409,-7.35011215381085e-06
1.5439999999999408,-5.450083161669247e-06
1.5449999999999406,-4.850074006256108e-06
1.5459999999999405,-6.050092317082384e-06
1.5469999999999404,-8.650131990539316e-06
1.5479999999999403,-1.1750179293507196e-05
1.5489999999999402,-1.4150215915159748e-05
1.54999999999994,-1.4950228122377267e-05
1.55099999999994,-1.3950212863355369e-05
1.5519999999999399,-1.1550176241702816e-05
1.5529999999999398,-8.650131990539316e-06
1.5539999999999397,-6.050092317082384e-06
1.5549999999999395,-4.450067902647349e-06
1.5559999999999394,-4.150063324940781e-06
1.5569999999999393,-5.450083161669247e-06
1.5579999999999392,-8.250125886930558e-06
1.558999999999939,-1.1950182345311575e-05
1.559999999999939,-1.5350234225986026e-05
1.5609999999999389,-1.7050260166323246e-05
1.5619999999999388,-1.625024795910573e-05
1.5629999999999387,-1.335020370794223e-05
1.5639999999999386,-9.950151827267782e-06
1.5649999999999384,-7.850119783321799e-06
1.5659999999999383,-7.950121309223988e-06
1.5669999999999382,-9.350142671854645e-06
1.567999999999938,-1.015015487907216e-05
1.568999999999938,-8.550130464637126e-06
1.569999999999938,-3.950060273136401e-06
1.5709999999999378,2.650040436408117e-06
1.5719999999999377,9.350142671854825e-06
1.5729999999999376,1.5050229648279637e-05
1.5739999999999374,1.9850302891584743e-05
1.5749999999999373,2.5150383764400793e-05
1.5759999999999372,3.245049515526064e-05
1.5769999999999371,4.1850638590066474e-05
1.577999999999937,5.2350798809796384e-05
1.578999999999937,6.175094224460222e-05
1.5799999999999368,6.805103837644016e-05
1.5809999999999367,7.045107499809272e-05
1.5819999999999366,6.915105516136425e-05
1.5829999999999365,6.48509895475701e-05
1.5839999999999363,5.865089494163433e-05
1.5849999999999362,5.065077286945916e-05
1.5859999999999361,4.0750621805142384e-05
1.586999999999936,2.8750438696879622e-05
1.587999999999936,1.4550222018768688e-05
1.5889999999999358,-1.2500190737772801e-06
1.5899999999999357,-1.7450266269932007e-05
1.5909999999999356,-3.225049210345608e-05
1.5919999999999355,-4.37506675822079e-05
1.5929999999999354,-5.095077744716555e-05
1.5939999999999352,-5.385082169832905e-05
1.5949999999999351,-5.3650818646524664e-05
1.595999999999935,-5.195079270618745e-05
1.596999999999935,-5.005076371404584e-05
1.5979999999999348,-4.8650742351415186e-05
1.5989999999999347,-4.735072251468672e-05
1.5999999999999346,-4.535069199664293e-05
1.6009999999999345,-4.1950640115968474e-05
1.6019999999999344,-3.6950563820858996e-05
1.6029999999999343,-3.065046768902104e-05
1.6039999999999341,-2.3950365453574337e-05
1.604999999999934,-1.775027084763858e-05
1.605999999999934,-1.2850196078431282e-05
1.6069999999999338,-9.750148775463403e-06
1.6079999999999337,-8.550130464637126e-06
1.6089999999999336,-8.650131990539316e-06
1.6099999999999335,-9.350142671854645e-06
1.6109999999999334,-9.650147249561213e-06
1.6119999999999333,-9.250141145952454e-06
1.6129999999999332,-8.350127412832748e-06
1.613999999999933,-7.55011520561523e-06
1.614999999999933,-7.45011367971304e-06
1.6159999999999328,-8.250125886930558e-06
1.6169999999999327,-9.650147249561213e-06
1.6179999999999326,-1.095016708628968e-05
1.6189999999999325,-1.1550176241702816e-05
1.6199999999999324,-1.095016708628968e-05
1.6209999999999323,-9.550145723659022e-06
1.6219999999999322,-7.65011673151742e-06
1.622999999999932,-6.050092317082384e-06
1.623999999999932,-5.450083161669247e-06
1.6249999999999318,-6.050092317082384e-06
1.6259999999999317,-7.850119783321799e-06
1.6269999999999316,-1.015015487907216e-05
1.6279999999999315,-1.1950182345311575e-05
1.6289999999999314,-1.2450189974822524e-05
1.6299999999999313,-1.1050168612191867e-05
1.6309999999999312,-8.450128938734935e-06
1.631999999999931,-5.550084687571436e-06
1.632999999999931,-3.350051117723263e-06
1.6339999999999308,-2.550038910505746e-06
1.6349999999999307,-3.150048065918884e-06
1.6359999999999306,-4.450067902647349e-06
1.6369999999999305,-5.850089265278005e-06
1.6379999999999304,-6.750102998397712e-06
1.6389999999999303,-6.950106050202092e-06
1.6399999999999302,-6.450098420691143e-06
1.64099999999993,-5.650086213473626e-06
1.64199999999993,-4.850074006256108e-06
1.6429999999999298,-4.050061799038591e-06
1.6439999999999297,-3.450052643625453e-06
1.6449999999999296,-2.9500450141145046e-06
1.6459999999999295,-2.550038910505746e-06
1.6469999999999294,-2.0500312809947977e-06
1.6479999999999293,-1.7500267032882285e-06
1.6489999999999292,-1.8500282291904182e-06
1.649999999999929,-2.4500373846035562e-06
1.650999999999929,-3.350051117723263e-06
1.6519999999999289,-3.950060273136401e-06